Frequency,Channel A,Channel B
(ms),(V),(mV)

-50.01289025,0.06744590,299.66120000
-49.99241025,0.04486221,297.96740000
-49.97193025,0.02792444,296.25840000
-49.95145025,0.01098666,294.56460000
-49.93097025,-0.01144444,292.30620000
-49.91049025,-0.03418073,290.03260000
-49.89001025,-0.05111850,288.33890000
-49.86953025,-0.06805628,286.64510000
-49.84905025,-0.09063997,284.38670000
-49.82857025,-0.10773030,282.11310000
-49.80809025,-0.12466810,279.85470000
-49.78761025,-0.14725180,277.59630000
-49.76713025,-0.16418960,275.90260000
-49.74665025,-0.18692590,274.19350000
-49.72617025,-0.20950960,271.93520000
-49.70569025,-0.22644730,270.24140000
-49.68521025,-0.24338510,267.96770000
-49.66473025,-0.26047550,266.27400000
-49.64425025,-0.27741320,264.01560000
-49.62377025,-0.29435100,262.30660000
-49.60329025,-0.31128880,260.61280000
-49.58281025,-0.32258060,258.35440000
-49.56233025,-0.33967100,256.09600000
-49.54185025,-0.35660880,253.82240000
-49.52137025,-0.36790060,252.12860000
-49.50089025,-0.38483840,249.30570000
-49.48041025,-0.40177620,247.03210000
-49.45993025,-0.41871400,244.77370000
-49.43945025,-0.43580430,241.93550000
-49.41897025,-0.45274210,239.11250000
-49.39849025,-0.46967990,236.85410000
-49.37801025,-0.48661760,234.58050000
-49.35753025,-0.50370800,232.88670000
-49.33705025,-0.51499990,231.19290000
-49.31657025,-0.53193760,228.93460000
-49.29609025,-0.54322950,226.09640000
-49.27561025,-0.55452130,223.83800000
-49.25513025,-0.56596580,221.56440000
-49.23465025,-0.57725760,219.30600000
-49.21417025,-0.58854940,216.48300000
-49.19369025,-0.59984130,213.64480000
-49.17321025,-0.61677910,209.69270000
-49.15273025,-0.62807100,207.41900000
-49.13225025,-0.63936280,205.16070000
-49.11177025,-0.65645310,202.90230000
-49.09129026,-0.67339090,201.19330000
-49.07081026,-0.68468280,198.93490000
-49.05033026,-0.69597460,196.67650000
-49.02985026,-0.71291240,193.83830000
-49.00937026,-0.72420420,192.70910000
-48.98889026,-0.73549610,190.45070000
-48.96841026,-0.74694050,188.17710000
-48.94793026,-0.75258640,185.91870000
-48.92745026,-0.76387830,183.09580000
-48.90697026,-0.77517010,180.82220000
-48.88649026,-0.78646200,178.56380000
-48.86601026,-0.79775380,176.30540000
-48.84553026,-0.80904570,174.04700000
-48.82505026,-0.82033750,171.20880000
-48.80457026,-0.83162940,168.95050000
-48.78409026,-0.84307380,166.11220000
-48.76361026,-0.84871980,163.85390000
-48.74313026,-0.86001160,161.03090000
-48.72265026,-0.87130340,158.77250000
-48.70217026,-0.87694940,156.49890000
-48.68169026,-0.88824120,154.24050000
-48.66121026,-0.89953310,151.98220000
-48.64073026,-0.91097750,149.14390000
-48.62025026,-0.92791530,146.32100000
-48.59977026,-0.93920710,143.48280000
-48.57929026,-0.95049900,141.22440000
-48.55881026,-0.96179080,138.38620000
-48.53833026,-0.97323520,136.12780000
-48.51785026,-0.97888120,133.30480000
-48.49737026,-0.99017300,131.03120000
-48.47689026,-1.00146500,128.77280000
-48.45641026,-1.00711100,126.51450000
-48.43593026,-1.01840300,124.25610000
-48.41545026,-1.02969500,121.41790000
-48.39497026,-1.04098600,119.15950000
-48.37449026,-1.05227800,116.32130000
-48.35401026,-1.06372300,113.49830000
-48.33353026,-1.06936900,110.09550000
-48.31305026,-1.08066000,107.27260000
-48.29257026,-1.09195200,104.44960000
-48.27209026,-1.10324400,101.61140000
-48.25161026,-1.10889000,98.78841000
-48.23113026,-1.11453600,95.38560000
-48.21065026,-1.12582800,91.99804000
-48.19017026,-1.13712000,89.72442000
-48.16969026,-1.14856400,87.46604000
-48.14921026,-1.15421000,85.20767000
-48.12873026,-1.15985600,82.93404000
-48.10825026,-1.17114800,80.11108000
-48.08777026,-1.18244000,77.27287000
-48.06729026,-1.19373200,75.01449000
-48.04681026,-1.19937700,72.75612000
-48.02633026,-1.21066900,69.35331000
-48.00585026,-1.21631500,66.53035000
-47.98537026,-1.22776000,62.56294000
-47.96489026,-1.23905100,59.17539000
-47.94441026,-1.24469700,56.35242000
-47.92393026,-1.25034300,53.51420000
-47.90345026,-1.25598900,50.12665000
-47.88297026,-1.26163500,46.72383000
-47.86249026,-1.26728100,43.90088000
-47.84201026,-1.27872600,40.49806000
-47.82153026,-1.28437100,38.23969000
-47.80105026,-1.29001700,35.98132000
-47.78057026,-1.29566300,33.70769000
-47.76009026,-1.30695500,30.88473000
-47.73961026,-1.31824700,28.62636000
-47.71913026,-1.32953900,26.35273000
-47.69865026,-1.33518500,23.52977000
-47.67817026,-1.34083100,21.27140000
-47.65769026,-1.35212300,18.99777000
-47.63721026,-1.36341400,15.61022000
-47.61673026,-1.37485900,12.22266000
-47.59625026,-1.38050500,9.94903400
-47.57577026,-1.38615100,7.12607100
-47.55529026,-1.39744300,4.30311000
-47.53481026,-1.40873400,2.04474000
-47.51433026,-1.42002600,-0.77822200
-47.49385026,-1.42567200,-4.16577600
-47.47337026,-1.43131800,-7.56859000
-47.45289027,-1.43696400,-10.39155000
-47.43241027,-1.44261000,-13.79437000
-47.41193027,-1.45405400,-16.61733000
-47.39145027,-1.45970000,-19.45555000
-47.37097027,-1.46534600,-22.27851000
-47.35049027,-1.47099200,-24.53688000
-47.33001027,-1.48228400,-26.81051000
-47.30953027,-1.49357600,-28.50429000
-47.28905027,-1.49922200,-31.32725000
-47.26857027,-1.51051400,-33.58562000
-47.24809027,-1.51616000,-36.98843000
-47.22761027,-1.52180600,-39.81139000
-47.20713027,-1.52745100,-43.21421000
-47.18665027,-1.53874300,-47.18161000
-47.16617027,-1.54438900,-50.56916000
-47.14569027,-1.55003500,-53.39213000
-47.12521027,-1.56148000,-55.66576000
-47.10473027,-1.56712500,-59.05331000
-47.08425027,-1.57841700,-61.32694000
-47.06377027,-1.58970900,-64.71449000
-47.04329027,-1.60100100,-67.55272000
-47.02281027,-1.60664700,-69.81109000
-47.00233027,-1.61229300,-72.63405000
-46.98185027,-1.61793900,-75.47227000
-46.96137027,-1.62938300,-78.85983000
-46.94089027,-1.63502900,-81.69804000
-46.92041027,-1.64067500,-84.52100000
-46.89993027,-1.64632100,-86.21478000
-46.87945027,-1.65761300,-88.48841000
-46.85897027,-1.66890500,-91.31138000
-46.83849027,-1.68019700,-94.14960000
-46.81801027,-1.69148800,-96.97256000
-46.79753027,-1.69713400,-99.79552000
-46.77705027,-1.70857900,-102.06910000
-46.75657027,-1.71422500,-104.89210000
-46.73609027,-1.72551700,-107.71510000
-46.71561027,-1.73116200,-111.11790000
-46.69513027,-1.73680800,-113.94080000
-46.67465027,-1.74245400,-116.21450000
-46.65417027,-1.75374600,-119.03740000
-46.63369027,-1.76503800,-121.86040000
-46.61321027,-1.77633000,-124.69860000
-46.59273027,-1.78777400,-127.52160000
-46.57225027,-1.79342000,-130.92440000
-46.55177027,-1.79906600,-133.74740000
-46.53129027,-1.80471200,-136.58560000
-46.51081027,-1.81600400,-138.84390000
-46.49033027,-1.82165000,-141.66690000
-46.46985027,-1.82729600,-144.50510000
-46.44937027,-1.83858800,-146.76350000
-46.42889027,-1.84988000,-149.58650000
-46.40841027,-1.86117100,-151.86010000
-46.38793027,-1.87246300,-154.11850000
-46.36745027,-1.88390800,-156.37680000
-46.34697027,-1.88955400,-159.77960000
-46.32649027,-1.90084500,-162.03800000
-46.30601027,-1.91213700,-164.87620000
-46.28553027,-1.91778300,-167.69920000
-46.26505027,-1.92342900,-170.52220000
-46.24457027,-1.92907500,-173.92500000
-46.22409027,-1.94036700,-176.74790000
-46.20361027,-1.95181100,-179.58620000
-46.18313027,-1.96310300,-181.84450000
-46.16265027,-1.96874900,-184.66750000
-46.14217027,-1.97439500,-186.94110000
-46.12169027,-1.98004100,-189.76410000
-46.10121027,-1.99133300,-192.02240000
-46.08073027,-1.99713100,-194.29610000
-46.06025027,-2.00277700,-196.55450000
-46.03977027,-2.00842300,-198.82810000
-46.01929027,-2.01406900,-201.65100000
-45.99881027,-2.01971500,-204.47400000
-45.97833027,-2.03100700,-206.74760000
-45.95785027,-2.04229900,-210.13520000
-45.93737027,-2.04794500,-212.97340000
-45.91689027,-2.05923700,-214.66720000
-45.89641027,-2.06488200,-218.05470000
-45.87593027,-2.07052800,-220.32840000
-45.85545027,-2.08182000,-222.58670000
-45.83497027,-2.08761900,-225.42500000
-45.81449028,-2.09326500,-227.68330000
-45.79401028,-2.09891100,-231.07090000
-45.77353028,-2.10455600,-233.34450000
-45.75305028,-2.11020200,-236.16750000
-45.73257028,-2.12149400,-237.86130000
-45.71209028,-2.13278600,-240.69950000
-45.69161028,-2.13843200,-242.95780000
-45.67113028,-2.14972400,-245.21620000
-45.65065028,-2.15537000,-247.48980000
-45.63017028,-2.16101600,-248.61900000
-45.60969028,-2.16666200,-250.87740000
-45.58921028,-2.17810600,-253.15100000
-45.56873028,-2.18375200,-255.40940000
-45.54825028,-2.18939800,-258.23230000
-45.52777028,-2.19504400,-261.07060000
-45.50729028,-2.20633600,-262.76430000
-45.48681028,-2.21198200,-265.58730000
-45.46633028,-2.22327400,-266.71650000
-45.44585028,-2.23456500,-268.99010000
-45.42537028,-2.24021100,-271.24850000
-45.40489028,-2.24585700,-273.50690000
-45.38441028,-2.25150300,-275.78050000
-45.36393028,-2.26279500,-278.03890000
-45.34345028,-2.26844100,-280.31250000
-45.32297028,-2.27988500,-282.00630000
-45.30249028,-2.28553100,-284.26460000
-45.28201028,-2.29117700,-285.95840000
-45.26153028,-2.29682300,-288.23210000
-45.24105028,-2.30811500,-289.92580000
-45.22057028,-2.31940700,-291.05500000
-45.20009028,-2.32505300,-292.74880000
-45.17961028,-2.33069800,-295.00710000
-45.15913028,-2.34199000,-296.71620000
-45.13865028,-2.34763600,-298.97450000
-45.11817028,-2.35908100,-301.79750000
-45.09769028,-2.37037300,-303.50660000
-45.07721028,-2.37601900,-305.76490000
-45.05673028,-2.38166500,-308.02330000
-45.03625028,-2.39295600,-309.73230000
-45.01577028,-2.40424800,-310.86150000
-44.99529028,-2.40989400,-313.11990000
-44.97481028,-2.42133900,-315.39350000
-44.95433028,-2.42698500,-316.52270000
-44.93385028,-2.43827600,-318.21650000
-44.91337028,-2.44392200,-319.91030000
-44.89289028,-2.44956800,-322.16860000
-44.87241028,-2.45521400,-323.87770000
-44.85193028,-2.46086000,-326.13600000
-44.83145028,-2.47215200,-327.82980000
-44.81097028,-2.48344400,-328.95900000
-44.79049028,-2.49473500,-331.23260000
-44.77001028,-2.50038100,-333.49100000
-44.74953028,-2.51167300,-335.18480000
-44.72905028,-2.52311800,-336.89380000
-44.70857028,-2.53441000,-340.84590000
-44.68809028,-2.54570200,-342.53970000
-44.66761028,-2.55134700,-344.81340000
-44.64713028,-2.55699300,-346.50710000
-44.62665028,-2.56263900,-347.63630000
-44.60617028,-2.56828500,-348.76550000
-44.58569028,-2.57957700,-349.89470000
-44.56521028,-2.59102200,-351.03910000
-44.54473028,-2.59666700,-351.03910000
-44.52425028,-2.60231300,-352.73290000
-44.50377028,-2.61360500,-354.42670000
-44.48329028,-2.62489700,-356.68510000
-44.46281028,-2.63618900,-358.39410000
-44.44233028,-2.64748100,-360.65250000
-44.42185028,-2.65312700,-362.91090000
-44.40137028,-2.65877200,-364.61990000
-44.38089028,-2.66441800,-366.31360000
-44.36041028,-2.67586300,-367.44280000
-44.33993028,-2.68150900,-368.57200000
-44.31945028,-2.68715500,-370.28100000
-44.29897028,-2.69280100,-371.97480000
-44.27849028,-2.69844700,-373.10400000
-44.25801028,-2.70409300,-374.23320000
-44.23753028,-2.70973800,-375.36240000
-44.21705028,-2.72118300,-376.49160000
-44.19657028,-2.72682900,-378.76520000
-44.17609028,-2.73247500,-380.45900000
-44.15561029,-2.73812100,-381.58820000
-44.13513029,-2.74376700,-382.71730000
-44.11465029,-2.75505900,-383.84650000
-44.09417029,-2.76635000,-384.97570000
-44.07369029,-2.77764200,-386.68480000
-44.05321029,-2.78328800,-387.81390000
-44.03273029,-2.78893400,-388.94310000
-44.01225029,-2.79458000,-390.07230000
-43.99177029,-2.80022600,-391.21680000
-43.97129029,-2.80602400,-392.34590000
-43.95081029,-2.80602400,-394.03970000
-43.93033029,-2.81167000,-395.16890000
-43.90985029,-2.81731600,-396.87790000
-43.88937029,-2.82296200,-398.57170000
-43.86889029,-2.82860800,-399.70090000
-43.84841029,-2.83425400,-400.26550000
-43.82793029,-2.84554600,-401.39470000
-43.80745029,-2.85119200,-402.52390000
-43.78697029,-2.86248400,-403.08850000
-43.76649029,-2.86812900,-404.21760000
-43.74601029,-2.87377500,-404.21760000
-43.72553029,-2.87942100,-404.21760000
-43.70505029,-2.88506700,-404.79750000
-43.68457029,-2.89071300,-405.92670000
-43.66409029,-2.89635900,-407.05580000
-43.64361029,-2.90780400,-408.18500000
-43.62313029,-2.91345000,-409.31420000
-43.60265029,-2.91909600,-410.44340000
-43.58217029,-2.92474100,-411.57260000
-43.56169029,-2.92474100,-413.28160000
-43.54121029,-2.93038700,-413.84620000
-43.52073029,-2.93603300,-414.41080000
-43.50025029,-2.93603300,-414.41080000
-43.47977029,-2.93603300,-414.41080000
-43.45929029,-2.93603300,-414.97540000
-43.43881029,-2.93603300,-415.54000000
-43.41833029,-2.94167900,-416.10460000
-43.39785029,-2.95297100,-416.66920000
-43.37737029,-2.95861700,-417.79840000
-43.35689029,-2.96426300,-418.94280000
-43.33641029,-2.96990900,-420.07200000
-43.31593029,-2.97555500,-421.20120000
-43.29545029,-2.98120100,-421.76580000
-43.27497029,-2.98699900,-422.33040000
-43.25449029,-2.98699900,-422.91020000
-43.23401029,-2.98699900,-422.91020000
-43.21353029,-2.98699900,-423.47480000
-43.19305029,-2.98699900,-424.03940000
-43.17257029,-2.98699900,-424.60400000
-43.15209029,-2.98699900,-425.73320000
-43.13161029,-2.98699900,-426.29780000
-43.11113029,-2.98699900,-426.86240000
-43.09065029,-2.98699900,-427.42700000
-43.07017029,-2.98699900,-427.99150000
-43.04969029,-2.98699900,-427.99150000
-43.02921029,-2.98699900,-427.99150000
-43.00873029,-2.98699900,-428.55620000
-42.98825029,-2.98699900,-428.55620000
-42.96777029,-2.98699900,-429.12070000
-42.94729029,-2.98699900,-429.68530000
-42.92681029,-2.98699900,-429.68530000
-42.90633029,-2.98699900,-430.24990000
-42.88585029,-2.98120100,-430.24990000
-42.86537029,-2.98120100,-430.81450000
-42.84489029,-2.97555500,-431.37910000
-42.82441029,-2.97555500,-431.37910000
-42.80393029,-2.96990900,-431.37910000
-42.78345029,-2.96426300,-431.37910000
-42.76297029,-2.95861700,-431.94370000
-42.74249029,-2.95297100,-431.94370000
-42.72201029,-2.95297100,-433.08810000
-42.70153029,-2.94732500,-433.08810000
-42.68105029,-2.94732500,-432.52360000
-42.66057029,-2.94167900,-433.08810000
-42.64009029,-2.94167900,-433.08810000
-42.61961029,-2.93603300,-433.08810000
-42.59913029,-2.93038700,-433.08810000
-42.57865029,-2.92474100,-433.08810000
-42.55817029,-2.91909600,-432.52360000
-42.53769029,-2.91345000,-432.52360000
-42.51721030,-2.90780400,-432.52360000
-42.49673030,-2.89635900,-431.95900000
-42.47625030,-2.88506700,-431.37910000
-42.45577030,-2.87942100,-431.37910000
-42.43529030,-2.86812900,-430.81450000
-42.41481030,-2.85683800,-430.81450000
-42.39433030,-2.84554600,-430.24990000
-42.37385030,-2.83425400,-430.24990000
-42.35337030,-2.82296200,-429.68530000
-42.33289030,-2.81151800,-429.68530000
-42.31241030,-2.80022600,-429.68530000
-42.29193030,-2.78328800,-429.12070000
-42.27145030,-2.77199600,-428.55620000
-42.25097030,-2.76070400,-427.99150000
-42.23049030,-2.74941300,-427.42700000
-42.21001030,-2.73247500,-426.86240000
-42.18953030,-2.71538400,-426.86240000
-42.16905030,-2.69844700,-425.73320000
-42.14857030,-2.67586300,-425.73320000
-42.12809030,-2.65892500,-425.16860000
-42.10761030,-2.64183500,-425.16860000
-42.08713030,-2.61925100,-424.60400000
-42.06665030,-2.59666700,-424.60400000
-42.04617030,-2.57393100,-424.03940000
-42.02569030,-2.54570200,-423.47480000
-42.00521030,-2.52311800,-422.89500000
-41.98473030,-2.50602700,-422.33040000
-41.96425030,-2.48344400,-422.33040000
-41.94377030,-2.46086000,-422.33040000
-41.92329030,-2.43827600,-422.33040000
-41.90281030,-2.40989400,-421.76580000
-41.88233030,-2.38731100,-421.20120000
-41.86185030,-2.37037300,-420.07200000
-41.84137030,-2.34763600,-419.50740000
-41.82089030,-2.32505300,-418.94280000
-41.80041030,-2.30246900,-417.79840000
-41.77993030,-2.27408700,-416.66920000
-41.75945030,-2.25150300,-415.54000000
-41.73897030,-2.22891900,-414.97540000
-41.71849030,-2.20069000,-414.41080000
-41.69801030,-2.17230700,-414.41080000
-41.67753030,-2.14407800,-413.84620000
-41.65705030,-2.11020200,-412.71700000
-41.63657030,-2.08182000,-412.15240000
-41.61609030,-2.05923700,-411.00800000
-41.59561030,-2.03100700,-410.44340000
-41.57513030,-2.00262500,-409.31420000
-41.55465030,-1.98004100,-408.18500000
-41.53417030,-1.95181100,-407.05580000
-41.51369030,-1.92342900,-406.49120000
-41.49321030,-1.90084500,-405.92670000
-41.47273030,-1.87261600,-405.36210000
-41.45225030,-1.83858800,-404.23290000
-41.43177030,-1.81035800,-403.08850000
-41.41129030,-1.77633000,-401.95930000
-41.39081030,-1.74810000,-400.83010000
-41.37033030,-1.71987100,-400.26550000
-41.34985030,-1.69148800,-396.86270000
-41.32937030,-1.65761300,-395.73350000
-41.30889030,-1.62938300,-394.60430000
-41.28841030,-1.60100100,-394.03970000
-41.26793030,-1.56712500,-392.34590000
-41.24745030,-1.54454200,-391.78130000
-41.22697030,-1.51051400,-390.63690000
-41.20649030,-1.47663800,-388.94310000
-41.18601030,-1.44825600,-390.07230000
-41.16553030,-1.42002600,-388.37850000
-41.14505030,-1.38615100,-386.68480000
-41.12457030,-1.35776900,-385.55560000
-41.10409030,-1.33518500,-384.99100000
-41.08361030,-1.30695500,-383.86180000
-41.06313030,-1.27857300,-382.71730000
-41.04265030,-1.25598900,-381.02360000
-41.02217030,-1.22776000,-379.89440000
-41.00169030,-1.19937700,-378.76520000
-40.98121030,-1.17679400,-377.63600000
-40.96073030,-1.14856400,-375.92700000
-40.94025030,-1.11453600,-374.23320000
-40.91977030,-1.08630600,-372.53940000
-40.89929030,-1.05792400,-371.41020000
-40.87881031,-1.02404900,-370.84560000
-40.85833031,-0.99581900,-369.13660000
-40.83785031,-0.96743670,-368.00740000
-40.81737031,-0.93920710,-366.31360000
-40.79689031,-0.91097750,-365.18450000
-40.77641031,-0.88824120,-364.05530000
-40.75593031,-0.86001160,-362.34630000
-40.73545031,-0.83178200,-360.08790000
-40.71497031,-0.80904570,-358.95870000
-40.69449031,-0.78081610,-357.24970000
-40.67401031,-0.75823240,-355.55590000
-40.65353031,-0.72985020,-354.42670000
-40.63305031,-0.70162050,-353.29750000
-40.61257031,-0.67339090,-351.60370000
-40.59209031,-0.65065460,-349.89470000
-40.57161031,-0.62807100,-348.76550000
-40.55113031,-0.60548720,-346.50710000
-40.53065031,-0.58290350,-345.37800000
-40.51017031,-0.55452130,-344.24880000
-40.48969031,-0.53193760,-342.55500000
-40.46921031,-0.50935390,-340.28130000
-40.44873031,-0.48661760,-338.58760000
-40.42825031,-0.46403390,-337.45840000
-40.40777031,-0.44145020,-335.74940000
-40.38729031,-0.41871400,-334.62020000
-40.36681031,-0.39613030,-332.36180000
-40.34633031,-0.37354660,-330.08820000
-40.32585031,-0.35096280,-328.39440000
-40.30537031,-0.33387250,-325.57140000
-40.28489031,-0.31128880,-324.44230000
-40.26441031,-0.28305920,-322.16860000
-40.24393031,-0.26047550,-320.47490000
-40.22345031,-0.23773920,-318.21650000
-40.20297031,-0.21515550,-316.52270000
-40.18249031,-0.19821770,-314.24910000
-40.16201031,-0.17548140,-311.99070000
-40.14153031,-0.15289770,-311.42610000
-40.12105031,-0.13031400,-309.15250000
-40.10057031,-0.11337630,-307.45870000
-40.08009031,-0.09063997,-305.76490000
-40.05961031,-0.06805628,-303.50660000
-40.03913031,-0.05111850,-301.79750000
-40.01865031,-0.02853481,-300.66830000
-39.99817031,-0.01144444,-298.97450000
-39.97769031,0.01098666,-297.28080000
-39.95721031,0.02792444,-295.00710000
-39.93673031,0.05050813,-293.31340000
-39.91625031,0.06759850,-291.61960000
-39.89577031,0.08453627,-290.49040000
-39.87529031,0.10712000,-288.23210000
-39.85481031,0.12405770,-285.95840000
-39.83433031,0.14099550,-284.26460000
-39.81385031,0.15793330,-282.00630000
-39.79337031,0.18066960,-280.31250000
-39.77289031,0.19196140,-278.03890000
-39.75241031,0.20889920,-275.78050000
-39.73193031,0.22583700,-272.95760000
-39.71145031,0.24277470,-271.24850000
