Frequency,Channel A,Channel B
(ms),(mV),(mV)

-50.02969131,6.13422000,5.49638300
-50.00921131,4.42518400,5.61235300
-49.98873131,2.71614700,5.27054600
-49.96825131,1.00711100,4.92873900
-49.94777131,-0.68666640,4.81582100
-49.92729131,-1.83111000,4.24512400
-49.90681131,-2.39570300,3.67748000
-49.88633131,-2.96029500,3.10983600
-49.86585131,-3.54014700,2.42622100
-49.84537131,-4.66933200,1.97149600
-49.82489131,-5.81377600,1.40385100
-49.80441131,-6.37836800,1.51677000
-49.78393131,-8.08740400,1.51677000
-49.76345131,-10.36103000,1.51677000
-49.74297131,-12.07007000,1.51677000
-49.72249131,-13.77911000,1.17496300
-49.70201131,-14.92355000,0.94912560
-49.68153131,-16.05273000,0.60731830
-49.66105131,-16.63259000,0.03662221
-49.64057131,-18.34162000,-0.41505170
-49.62009131,-18.90622000,-0.86977740
-49.59961131,-20.03540000,-1.21158500
-49.57913131,-21.17984000,-1.32450300
-49.55865131,-22.32429000,-1.55339200
-49.53817131,-24.03333000,-1.55339200
-49.51769131,-25.16251000,-1.55339200
-49.49721131,-26.30695000,-1.89214700
-49.47673131,-27.43614000,-2.23395500
-49.45625131,-28.01599000,-3.03048800
-49.43577131,-29.14518000,-3.48521400
-49.41529131,-30.28962000,-3.82702100
-49.39481131,-31.43406000,-3.93993900
-49.37433131,-32.56325000,-4.39771700
-49.35385131,-34.27229000,-4.62355400
-49.33337131,-35.98132000,-4.73647300
-49.31289131,-37.12576000,-5.30716800
-49.29241131,-38.83480000,-4.85244300
-49.27193131,-39.96399000,-4.62355400
-49.25145131,-41.10843000,-4.85244300
-49.23097131,-42.23761000,-4.96536200
-49.21049131,-43.94665000,-5.07827900
-49.19001131,-44.52650000,-5.76189500
-49.16953131,-45.65569000,-5.99078300
-49.14905131,-46.80013000,-5.76189500
-49.12857131,-48.50917000,-6.21662000
-49.10809131,-49.65361000,-6.78426500
-49.08761131,-50.78279000,-7.46787900
-49.06713131,-51.92724000,-8.26441200
-49.04665131,-53.05643000,-8.37733100
-49.02617131,-54.76546000,-8.15149300
-49.00569131,-55.90990000,-8.03552300
-48.98521132,-57.05435000,-7.92260500
-48.96473132,-57.61894000,-8.15149300
-48.94425132,-58.18354000,-8.60621900
-48.92377132,-58.74813000,-8.60621900
-48.90329132,-59.89257000,-8.83205600
-48.88281132,-60.45716000,-9.51567100
-48.86233132,-61.60161000,-9.97039600
-48.84185132,-62.73079000,-10.42512000
-48.82137132,-64.43983000,-11.10874000
-48.80089132,-65.58427000,-10.99582000
-48.78041132,-67.29331000,-11.10874000
-48.75993132,-69.00235000,-10.88290000
-48.73945132,-70.13153000,-10.76693000
-48.71897132,-71.84057000,-10.99582000
-48.69849132,-72.40516000,-11.56346000
-48.67801132,-73.54960000,-12.36000000
-48.65753132,-74.11420000,-13.04361000
-48.63705132,-75.82323000,-13.61125000
-48.61657132,-76.96767000,-13.84014000
-48.59609132,-79.24131000,-14.52071000
-48.57561132,-80.38575000,-14.63668000
-48.55513132,-80.95035000,-14.74959000
-48.53465132,-82.65938000,-14.86251000
-48.51417132,-83.80382000,-14.74959000
-48.49369132,-85.51286000,-14.86251000
-48.47321132,-86.07745000,-15.31724000
-48.45273132,-87.22189000,-15.31724000
-48.43225132,-86.64204000,-15.77502000
-48.41177132,-87.78649000,-16.34266000
-48.39129132,-88.93093000,-16.68447000
-48.37081132,-89.49553000,-16.68447000
-48.35033132,-90.62471000,-16.79739000
-48.32985132,-91.20457000,-17.02628000
-48.30937132,-91.76915000,-17.25211000
-48.28889132,-92.89834000,-17.82281000
-48.26841132,-94.60738000,-18.16462000
-48.24793132,-95.75182000,-18.27753000
-48.22745132,-97.46085000,-18.61934000
-48.20697132,-98.59004000,-19.07407000
-48.18649132,-100.29910000,-19.41587000
-48.16601132,-101.44350000,-19.41587000
-48.14553132,-103.15260000,-19.64171000
-48.12505132,-104.29700000,-19.75768000
-48.10457132,-105.42620000,-19.98352000
-48.08409132,-106.57060000,-20.66714000
-48.06361132,-107.69980000,-20.55421000
-48.04313132,-109.40890000,-21.00894000
-48.02265132,-109.98870000,-21.57659000
-48.00217132,-111.69770000,-21.68950000
-47.98169132,-112.82690000,-21.57659000
-47.96121132,-113.97140000,-21.80547000
-47.94073132,-115.10050000,-21.68950000
-47.92025132,-116.24500000,-21.91839000
-47.89977132,-116.80960000,-22.48604000
-47.87929132,-117.38940000,-22.60201000
-47.85881132,-118.51860000,-23.05673000
-47.83833132,-119.09850000,-23.62438000
-47.81785132,-120.80750000,-23.96618000
-47.79737132,-121.93670000,-24.64980000
-47.77689132,-123.08110000,-24.99161000
-47.75641132,-124.22560000,-24.99161000
-47.73593132,-125.35480000,-25.44633000
-47.71545132,-125.91940000,-25.33036000
-47.69497132,-127.06380000,-25.44633000
-47.67449132,-127.62840000,-25.67217000
-47.65401132,-128.77280000,-25.78814000
-47.63353132,-129.33740000,-26.01398000
-47.61305132,-129.90200000,-26.35578000
-47.59257132,-131.04650000,-26.35578000
-47.57209132,-132.17570000,-26.01398000
-47.55161132,-133.88470000,-26.24286000
-47.53113132,-134.46450000,-26.01398000
-47.51065132,-135.59370000,-26.23981000
-47.49017132,-135.59370000,-27.03635000
-47.46969132,-136.73820000,-27.03635000
-47.44921132,-137.86740000,-27.49412000
-47.42873132,-138.44720000,-27.71996000
-47.40825132,-139.57640000,-28.17469000
-47.38777132,-140.72080000,-29.08719000
-47.36729132,-141.86530000,-29.20011000
-47.34681133,-142.99450000,-29.31303000
-47.32633133,-144.70350000,-29.20011000
-47.30585133,-145.26810000,-29.20011000
-47.28537133,-145.84790000,-28.97122000
-47.26489133,-146.97710000,-29.42595000
-47.24441133,-147.55700000,-29.42595000
-47.22393133,-149.26600000,-29.20011000
-47.20345133,-150.39520000,-29.76775000
-47.18297133,-151.53960000,-29.88372000
-47.16249133,-152.10420000,-30.10956000
-47.14201133,-153.24870000,-30.22248000
-47.12153133,-154.95770000,-30.56429000
-47.10105133,-155.52230000,-30.79317000
-47.08057133,-156.66680000,-31.13498000
-47.06009133,-156.66680000,-31.36082000
-47.03961133,-157.23140000,-31.47374000
-47.01913133,-157.79590000,-31.70263000
-46.99865133,-158.37580000,-31.81555000
-46.97817133,-159.50500000,-32.15735000
-46.95769133,-160.08480000,-32.27027000
-46.93721133,-161.21400000,-32.04443000
-46.91673133,-161.79390000,-32.38624000
-46.89625133,-162.92310000,-32.84097000
-46.87577133,-163.48760000,-33.06680000
-46.85529133,-164.63210000,-33.29569000
-46.83481133,-165.76130000,-33.18277000
-46.81433133,-166.34110000,-33.40861000
-46.79385133,-166.90570000,-33.40861000
-46.77337133,-167.47030000,-33.86639000
-46.75289133,-168.61470000,-34.32111000
-46.73241133,-169.17930000,-34.09223000
-46.71193133,-169.74390000,-34.09223000
-46.69145133,-170.32380000,-34.54695000
-46.67097133,-170.88840000,-34.66292000
-46.65049133,-171.45300000,-34.77584000
-46.63001133,-172.03280000,-35.34348000
-46.60953133,-172.59740000,-35.45640000
-46.58905133,-173.16200000,-35.57237000
-46.56857133,-173.74190000,-35.91113000
-46.54809133,-174.30650000,-36.14002000
-46.52761133,-174.87100000,-35.91113000
-46.50713133,-176.01550000,-36.14002000
-46.48665133,-177.15990000,-36.25294000
-46.46617133,-177.72450000,-36.36890000
-46.44569133,-178.85370000,-36.70766000
-46.42521133,-179.43360000,-36.36890000
-46.40473133,-179.99820000,-36.48183000
-46.38425133,-181.70720000,-36.71072000
-46.36377133,-182.27180000,-36.59474000
-46.34329133,-182.85160000,-37.39128000
-46.32281133,-183.41620000,-37.62017000
-46.30233133,-184.56070000,-37.39128000
-46.28185133,-185.12530000,-37.62017000
-46.26137133,-186.25440000,-37.62017000
-46.24089133,-186.83430000,-37.50419000
-46.22041133,-187.39890000,-37.84600000
-46.19993133,-188.54330000,-38.18781000
-46.17945133,-189.10790000,-38.07489000
-46.15897133,-189.67250000,-38.52962000
-46.13849133,-190.25240000,-38.64254000
-46.11801133,-190.81700000,-38.64254000
-46.09753133,-191.38160000,-39.09726000
-46.07705133,-192.52600000,-38.75545000
-46.05657133,-193.09060000,-38.64254000
-46.03609133,-193.67050000,-38.98434000
-46.01561133,-194.23500000,-38.98434000
-45.99513133,-194.79960000,-38.98434000
-45.97465133,-195.36420000,-39.21323000
-45.95417133,-196.50870000,-39.21323000
-45.93369133,-197.07330000,-39.55199000
-45.91321133,-197.65310000,-40.34852000
-45.89273133,-198.21770000,-40.34852000
-45.87225133,-198.78230000,-40.34852000
-45.85177133,-199.36220000,-40.34852000
-45.83129133,-199.92670000,-40.12268000
-45.81081133,-200.50660000,-40.23560000
-45.79033133,-200.50660000,-40.34852000
-45.76985133,-201.07120000,-40.34852000
-45.74937133,-201.07120000,-40.46449000
-45.72889133,-201.07120000,-40.69033000
-45.70841133,-202.20040000,-40.91922000
-45.68793134,-202.78020000,-40.91922000
-45.66745134,-203.34480000,-41.03213000
-45.64697134,-203.90940000,-41.14505000
-45.62649134,-204.47400000,-41.03213000
-45.60601134,-204.47400000,-41.14505000
-45.58553134,-205.05380000,-41.14505000
-45.56505134,-206.18300000,-41.26102000
-45.54457134,-205.61840000,-41.48686000
-45.52409134,-205.61840000,-41.48686000
-45.50361134,-205.61840000,-41.59978000
-45.48313134,-206.18300000,-41.71575000
-45.46265134,-206.74760000,-41.48686000
-45.44217134,-207.32750000,-41.26102000
-45.42169134,-207.89210000,-41.26102000
-45.40121134,-208.45670000,-41.26102000
-45.38073134,-209.02130000,-40.80630000
-45.36025134,-209.60110000,-41.26102000
-45.33977134,-209.60110000,-41.48686000
-45.31929134,-209.60110000,-41.48686000
-45.29881134,-209.60110000,-42.39936000
-45.27833134,-210.16570000,-42.62520000
-45.25785134,-210.73030000,-42.73812000
-45.23737134,-210.16570000,-42.62520000
-45.21689134,-210.73030000,-42.73812000
-45.19641134,-210.73030000,-42.73812000
-45.17593134,-211.87470000,-42.51228000
-45.15545134,-212.43930000,-42.62520000
-45.13497134,-213.01920000,-42.39936000
-45.11449134,-213.01920000,-42.28339000
-45.09401134,-212.43930000,-42.39936000
-45.07353134,-213.01920000,-42.62520000
-45.05305134,-213.01920000,-42.85409000
-45.03257134,-213.58380000,-42.73812000
-45.01209134,-213.01920000,-42.85409000
-44.99161134,-213.58380000,-42.73812000
-44.97113134,-213.58380000,-42.62520000
-44.95065134,-213.58380000,-42.73812000
-44.93017134,-214.72820000,-41.71575000
-44.90969134,-215.29280000,-41.71575000
-44.88921134,-215.29280000,-41.71575000
-44.86873134,-215.85740000,-41.60283000
-44.84825134,-217.00180000,-41.71575000
-44.82777134,-217.00180000,-41.82867000
-44.80729134,-217.56650000,-41.94159000
-44.78681134,-218.13100000,-42.05756000
-44.76633134,-218.13100000,-42.96701000
-44.74585134,-218.13100000,-42.85409000
-44.72537134,-218.71090000,-42.85409000
-44.70489134,-218.71090000,-43.30882000
-44.68441134,-218.71090000,-43.53465000
-44.66393134,-218.71090000,-43.65062000
-44.64345134,-218.71090000,-43.53465000
-44.62297134,-218.71090000,-42.96701000
-44.60249134,-218.13100000,-42.73812000
-44.58201134,-217.56650000,-42.62520000
-44.56153134,-217.00180000,-42.62520000
-44.54105134,-217.00180000,-42.62520000
-44.52057134,-216.43730000,-42.73812000
-44.50009134,-216.43730000,-42.96701000
-44.47961134,-216.43730000,-42.96701000
-44.45913134,-216.43730000,-43.19590000
-44.43865134,-217.00180000,-43.42173000
-44.41817134,-217.56650000,-43.65062000
-44.39769134,-218.13100000,-43.65062000
-44.37721134,-218.13100000,-43.30882000
-44.35673134,-218.71090000,-42.96701000
-44.33625134,-218.13100000,-42.62520000
-44.31577134,-218.13100000,-42.39631000
-44.29529134,-217.56650000,-42.73812000
-44.27481134,-217.56650000,-42.85104000
-44.25433134,-216.42200000,-42.62520000
-44.23385134,-215.85740000,-42.62520000
-44.21337134,-215.29280000,-42.51228000
-44.19289134,-214.14840000,-42.39631000
-44.17241134,-214.14840000,-42.28339000
-44.15193134,-213.01920000,-42.39936000
-44.13145134,-212.43930000,-42.28339000
-44.11097134,-211.87470000,-42.05756000
-44.09049134,-211.87470000,-42.28339000
-44.07001134,-211.31020000,-42.28339000
-44.04953135,-210.73030000,-42.28339000
-44.02905135,-210.73030000,-42.17048000
-44.00857135,-210.16570000,-42.05756000
-43.98809135,-210.16570000,-42.28339000
-43.96761135,-210.16570000,-41.94159000
-43.94713135,-209.60110000,-42.05756000
-43.92665135,-209.02130000,-41.94159000
-43.90617135,-209.02130000,-41.82867000
-43.88569135,-208.45670000,-41.82867000
-43.86521135,-207.89210000,-41.94159000
-43.84473135,-207.89210000,-41.94159000
-43.82425135,-207.89210000,-41.71575000
-43.80377135,-207.32750000,-41.82867000
-43.78329135,-207.32750000,-40.80630000
-43.76281135,-207.32750000,-40.69033000
-43.74233135,-206.74760000,-40.57741000
-43.72185135,-206.74760000,-40.35157000
-43.70137135,-206.18300000,-40.00977000
-43.68089135,-205.05380000,-40.12268000
-43.66041135,-203.90940000,-40.12268000
-43.63993135,-203.34480000,-40.12268000
-43.61945135,-202.20040000,-41.03213000
-43.59897135,-201.63580000,-41.14811000
-43.57849135,-201.07120000,-40.91922000
-43.55801135,-200.50660000,-40.91922000
-43.53753135,-200.50660000,-40.69033000
-43.51705135,-200.50660000,-40.35157000
-43.49657135,-199.92670000,-40.23560000
-43.47609135,-198.79760000,-40.00977000
-43.45561135,-197.65310000,-39.78088000
-43.43513135,-197.08850000,-39.43907000
-43.41465135,-196.50870000,-39.66796000
-43.39417135,-195.94410000,-40.00977000
-43.37369135,-194.79960000,-40.46449000
-43.35321135,-193.67050000,-40.57741000
-43.33273135,-193.09060000,-40.23560000
-43.31225135,-193.09060000,-40.00977000
-43.29177135,-193.09060000,-39.55504000
-43.27129135,-191.96140000,-39.32615000
-43.25081135,-191.38160000,-39.32615000
-43.23033135,-189.68780000,-39.09726000
-43.20985135,-188.54330000,-39.09726000
-43.18937135,-187.97870000,-38.87143000
-43.16889135,-186.26970000,-38.52962000
-43.14841135,-185.12530000,-38.41669000
-43.12793135,-183.98080000,-38.64254000
-43.10745135,-183.41620000,-38.87143000
-43.08697135,-181.70720000,-38.64254000
-43.06649135,-180.56280000,-37.50419000
-43.04601135,-179.99820000,-36.93655000
-43.02553135,-179.43360000,-36.70766000
-43.00505135,-179.43360000,-36.70766000
-42.98457135,-178.85370000,-37.04947000
-42.96409135,-177.72450000,-36.70766000
-42.94361135,-176.58010000,-36.48183000
-42.92313135,-176.01550000,-35.79821000
-42.90265135,-176.01550000,-36.14002000
-42.88217135,-174.87100000,-36.02710000
-42.86169135,-173.16200000,-35.79821000
-42.84121135,-172.03280000,-36.14002000
-42.82073135,-170.32380000,-35.68529000
-42.80025135,-170.32380000,-35.34348000
-42.77977135,-169.17930000,-34.88876000
-42.75929135,-168.61470000,-34.88876000
-42.73881135,-167.47030000,-34.77584000
-42.71833135,-166.34110000,-34.65987000
-42.69785135,-165.76130000,-34.65987000
-42.67737135,-164.63210000,-33.97931000
-42.65689135,-164.06750000,-33.86334000
-42.63641135,-161.77860000,-33.29569000
-42.61593135,-161.21400000,-32.95389000
-42.59545135,-159.50500000,-33.18277000
-42.57497135,-158.37580000,-33.06680000
-42.55449135,-157.79590000,-32.61208000
-42.53401135,-156.08690000,-32.61208000
-42.51353135,-155.52230000,-32.38624000
-42.49305135,-154.37790000,-32.04443000
-42.47257135,-153.24870000,-32.38624000
-42.45209135,-151.53960000,-32.72805000
-42.43161135,-150.39520000,-32.49916000
-42.41113136,-149.26600000,-32.49916000
-42.39065136,-148.12160000,-32.38624000
-42.37017136,-147.55700000,-32.15735000
-42.34969136,-146.41250000,-32.15735000
-42.32921136,-144.70350000,-31.93151000
-42.30873136,-144.13890000,-32.27332000
-42.28825136,-142.99450000,-31.81555000
-42.26777136,-142.42990000,-31.47679000
-42.24729136,-141.28540000,-31.24790000
-42.22681136,-140.15630000,-31.01901000
-42.20633136,-139.01180000,-31.13498000
-42.18585136,-137.86740000,-31.13498000
-42.16537136,-137.86740000,-30.90609000
-42.14489136,-136.73820000,-30.45137000
-42.12441136,-136.15830000,-30.22248000
-42.10393136,-134.46450000,-30.10956000
-42.08345136,-133.32010000,-29.65483000
-42.06297136,-132.19090000,-29.54192000
-42.04249136,-131.04650000,-28.85830000
-42.02201136,-129.91730000,-28.74538000
-42.00153136,-128.20830000,-28.74538000
-41.98105136,-127.06380000,-28.62941000
-41.96057136,-125.91940000,-28.40357000
-41.94009136,-124.79020000,-27.94885000
-41.91961136,-123.64570000,-28.17469000
-41.89913136,-122.51650000,-28.06177000
-41.87865136,-121.37210000,-27.94885000
-41.85817136,-119.66310000,-27.37815000
-41.83769136,-118.51860000,-27.03940000
-41.81721136,-116.80960000,-26.81051000
-41.79673136,-115.68040000,-26.69759000
-41.77625136,-114.53600000,-26.46870000
-41.75577136,-113.40680000,-26.24286000
-41.73529136,-112.26230000,-26.35578000
-41.71481136,-111.11790000,-26.01398000
-41.69433136,-109.98870000,-26.01398000
-41.67385136,-108.84430000,-25.90106000
-41.65337136,-107.69980000,-25.33036000
-41.63289136,-106.00600000,-25.44633000
-41.61241136,-104.29700000,-25.21744000
-41.59193136,-103.15260000,-24.98855000
-41.57145136,-100.87890000,-24.64980000
-41.55097136,-99.73449000,-24.19202000
-41.53049136,-98.59004000,-23.96618000
-41.51001136,-96.89626000,-23.85327000
-41.48953136,-95.75182000,-23.96618000
-41.46905136,-94.60738000,-23.28257000
-41.44857136,-94.04278000,-23.28257000
-41.42809136,-92.89834000,-22.82784000
-41.40761136,-92.33374000,-22.14728000
-41.38713136,-90.62471000,-22.48604000
-41.36665136,-89.49553000,-22.03131000
-41.34617136,-88.35108000,-21.46367000
-41.32569136,-87.22189000,-21.23478000
-41.30521136,-86.07745000,-21.00894000
-41.28473136,-84.36842000,-20.66714000
-41.26425136,-82.65938000,-20.78005000
-41.24377136,-81.53020000,-20.66714000
-41.22329136,-80.38575000,-20.43825000
-41.20281136,-79.24131000,-20.43825000
-41.18233136,-78.11212000,-20.21241000
-41.16185136,-76.96767000,-19.98352000
-41.14137136,-75.82323000,-20.09644000
-41.12089136,-74.69405000,-19.52879000
-41.10041136,-72.98501000,-18.96115000
-41.07993136,-71.84057000,-19.07407000
-41.05945136,-70.13153000,-18.39045000
-41.03897136,-68.42249000,-18.39045000
-41.01849136,-67.29331000,-18.39045000
-40.99801136,-65.58427000,-18.27753000
-40.97753136,-63.87524000,-17.93573000
-40.95705136,-62.73079000,-17.93573000
-40.93657136,-61.60161000,-17.70989000
-40.91609136,-59.89257000,-17.48100000
-40.89561136,-58.74813000,-17.48100000
-40.87513136,-57.03909000,-16.91031000
-40.85465136,-55.34531000,-16.68447000
-40.83417136,-54.20087000,-16.00085000
-40.81369136,-52.49183000,-15.77502000
-40.79321136,-50.78279000,-15.88794000
-40.77273136,-50.21820000,-15.65905000
-40.75225137,-49.07376000,-15.43321000
-40.73177137,-47.94458000,-15.20432000
-40.71129137,-47.36472000,-14.86557000
-40.69081137,-46.80013000,-14.52376000
-40.67033137,-45.65569000,-14.63668000
-40.64985137,-45.09109000,-14.18195000
-40.62937137,-43.94665000,-13.38542000
-40.60889137,-42.25287000,-13.15653000
-40.58841137,-41.10843000,-12.58889000
-40.56793137,-39.39939000,-12.13416000
-40.54745137,-38.25495000,-12.24708000
-40.52697137,-35.98132000,-12.36000000
-40.50649137,-34.27229000,-12.13416000
-40.48601137,-32.56325000,-12.13416000
-40.46553137,-31.43406000,-11.90527000
-40.44505137,-30.28962000,-11.56346000
-40.42457137,-29.14518000,-11.33763000
-40.40409137,-28.58058000,-10.65401000
-40.38361137,-26.87155000,-10.31220000
-40.36313137,-25.74236000,-9.63164100
-40.34265137,-24.59792000,-9.63164100
-40.32217137,-23.45347000,-9.40275200
-40.30169137,-23.45347000,-9.74455900
-40.28121137,-22.32429000,-9.40275200
-40.26073137,-20.61525000,-9.28983400
-40.24025137,-18.90622000,-9.62859000
-40.21977137,-17.19718000,-9.06094500
-40.19929137,-16.05273000,-8.83205600
-40.17881137,-14.35896000,-7.92260500
-40.15833137,-13.21451000,-7.24204200
-40.13785137,-10.94089000,-6.44550900
-40.11737137,-9.23184900,-6.32953800
-40.09689137,-8.08740400,-5.87481300
-40.07641137,-6.37836800,-5.76189500
-40.05593137,-5.24918300,-5.53300600
-40.03545137,-4.10473900,-5.19425000
-40.01497137,-3.54014700,-4.85244300
-39.99449137,-2.39570300,-4.51063600
-39.97401137,-0.68666640,-4.96536200
-39.95353137,1.00711100,-4.62355400
